#Incident energy 	 
#Incident energy 	 
#Incident energy 	 σ(E)
#1E-05	0
780000	0
793100	4.048E-06
854610	1.2622E-05
916120	3.6546E-05
940730	5.4674E-05
965330	8.0622E-05
989940	0.00011704
1002200	0.00014027
1014500	0.00016797
1026800	0.00020316
1039100	0.00026593
1040400	0.00027787
1041600	0.00029265
1042800	0.00031158
1044100	0.00033691
1045300	0.00037262
1046500	0.00042627
1047800	0.00051374
1049000	0.00067273
1050200	0.00101
1051500	0.0019124
1052100	0.0029993
1052700	0.005162
1052800	0.0057815
1052900	0.0064598
1053100	0.007178
1053200	0.0079021
1053300	0.0085795
1053400	0.0091426
1053500	0.0095212
1053700	0.0096602
1053800	0.0095385
1053900	0.0091765
1054200	0.0079639
1054400	0.0065407
1054700	0.0052532
1054900	0.0042153
1055100	0.0034174
1055400	0.0028124
1055600	0.0023528
1055900	0.0020003
1056100	0.0017265
1056400	0.0015109
1056600	0.0013389
1056900	0.0012
1057100	0.0010864
1057400	0.00099249
1057600	0.00091417
1058800	0.00066727
1060100	0.00054464
1061300	0.00047617
1062500	0.00043491
1063800	0.00040877
1066200	0.0003804
1068700	0.00036819
1071100	0.00036388
1073600	0.00036392
1076100	0.00036657
1082200	0.00037939
1088400	0.00039672
1094500	0.00041622
1100700	0.00043693
1106800	0.00045832
1113000	0.00048006
1119100	0.00050195
1125300	0.00052381
1131400	0.0005455
1137600	0.0005669
1143700	0.00058791
1149900	0.00060846
1156000	0.00062847
1162200	0.00064788
1168300	0.00066665
1174500	0.00068476
1176900	0.00069181
1179400	0.00069879
1181900	0.00070561
1184300	0.00071228
1186800	0.00071893
1189200	0.00072542
1191700	0.00073183
1194200	0.00073808
1196600	0.00074425
1199100	0.00075033
1201500	0.00075625
1204000	0.00076209
1206500	0.00076785
1208900	0.00077352
1211400	0.00077905
1217500	0.00079248
1223700	0.00080542
1229800	0.00081774
1236000	0.00082957
1248300	0.00085195
1260600	0.00087293
1272900	0.00089287
1285200	0.00091244
1297500	0.00093271
1309800	0.00095805
1322100	0.0010279
1328300	0.0013242
1329500	0.0016071
1330700	0.0024177
1331300	0.0035546
1331900	0.0067313
1332600	0.019993
1333200	0.039089
1333800	0.011859
1334400	0.005492
1335000	0.0040862
1335600	0.0045286
1336200	0.0062436
1336400	0.0064275
1336500	0.006429
1336600	0.00624
1336700	0.0058962
1336900	0.0054592
1337500	0.0034264
1338100	0.0024013
1338700	0.0019128
1339300	0.0016498
1339900	0.0014919
1340600	0.001389
1346700	0.0011084
1352900	0.0010674
1359000	0.0010589
1365200	0.0010602
1371300	0.0010658
1377500	0.0010736
1383600	0.0010827
1395900	0.001104
1408200	0.0011282
1420500	0.0011549
1432800	0.0011842
1445100	0.001216
1457400	0.0012506
1469700	0.0012882
1482000	0.001329
1494300	0.0013733
1506600	0.0014214
1518900	0.0014737
1531200	0.0015303
1543500	0.0015919
1555800	0.0016591
1568100	0.001734
1580500	0.0021778
1592800	0.0018967
1605100	0.0019865
1617400	0.0020869
1629700	0.0021966
1642000	0.0023165
1654300	0.0024476
1666600	0.0025919
1678900	0.0027518
1691200	0.002932
1703500	0.0031437
1709600	0.0032707
1715800	0.0034249
1721900	0.0036309
1728100	0.0039301
1729300	0.0040023
1730500	0.0040762
1731800	0.0041495
1733000	0.0042183
1734200	0.0042787
1735500	0.0043267
1736700	0.0043595
1737900	0.0043765
1739100	0.0043791
1740400	0.0043705
1742800	0.0043349
1745300	0.0042967
1747800	0.0042701
1750200	0.0042593
1752700	0.0042631
1758800	0.0043213
1765000	0.004424
1771100	0.0045533
1777300	0.0047009
1789600	0.0050371
1801900	0.0054203
1814200	0.0058499
1826500	0.0063281
1838800	0.0068586
1851100	0.0074474
1863400	0.0081007
1875700	0.0088258
1888000	0.0096312
1900300	0.010528
1924900	0.012652
1949500	0.015361
1974100	0.018975
1998700	0.024181
2023300	0.032477
2047900	0.044908
2072500	0.054279
2097100	0.049093
2121800	0.040593
2146400	0.037664
2158700	0.038922
2171000	0.042513
2183300	0.049063
2195600	0.058957
2207900	0.071156
2220200	0.082018
2226300	0.085446
2232500	0.087072
2238600	0.086932
2244800	0.085352
2250900	0.082782
2257100	0.079661
2263200	0.076337
2269400	0.073074
2281700	0.067259
2294000	0.062806
2306300	0.059819
2318600	0.05831
2330900	0.058337
2343200	0.060062
2355500	0.063727
2367800	0.069445
2380100	0.076844
2392400	0.084795
2398600	0.087938
2404700	0.089282
2410900	0.087929
2417000	0.083741
2418200	0.082616
2419500	0.081415
2420700	0.080142
2421900	0.078818
2423200	0.077447
2424400	0.076032
2425600	0.074594
2426800	0.073133
2428100	0.071662
2429300	0.070182
2435500	0.062947
2441600	0.056326
2447800	0.050579
2453900	0.04572
2460100	0.041672
2466200	0.038315
2478500	0.033207
2490800	0.029622
2503100	0.027045
2515400	0.02516
2527700	0.023791
2540000	0.022887
2552300	0.022589
2564600	0.023661
2570800	0.025606
2576900	0.030171
2583100	0.041267
2589200	0.063403
2591700	0.070915
2594200	0.072224
2596600	0.067163
2599100	0.059211
2601500	0.05144
2604000	0.045055
2607700	0.038139
2613800	0.031393
2620000	0.02779
2626100	0.025714
2632300	0.024484
2638400	0.023818
2644600	0.023662
2650800	0.024213
2656900	0.026338
2663100	0.034221
2664300	0.037898
2665500	0.043193
2666700	0.051001
2668000	0.062607
2669200	0.079209
2670400	0.099203
2671700	0.11282
2672900	0.10763
2674100	0.088402
2675400	0.068838
2676600	0.054403
2677800	0.044689
2679000	0.038213
2680300	0.033808
2681500	0.030725
2682700	0.028506
2684000	0.026865
2685200	0.025624
2686400	0.024665
2687700	0.023911
2693800	0.021822
2700000	0.020989
2706100	0.020658
2712300	0.020617
2718400	0.020818
2724600	0.021309
2730700	0.022266
2736900	0.024161
2743000	0.028446
2749200	0.040965
2750400	0.046065
2751600	0.0528
2752900	0.061592
2754100	0.072608
2755300	0.085115
2756500	0.096125
2757800	0.10113
2759000	0.097343
2760200	0.086938
2761500	0.074582
2767600	0.03945
2773800	0.032084
2779900	0.033348
2786100	0.043053
2792200	0.079883
2793500	0.09661
2794700	0.11955
2795900	0.15009
2797100	0.18695
2798400	0.2215
2799600	0.23663
2800800	0.22146
2802100	0.18603
2803300	0.14793
2804500	0.11639
2805800	0.092817
2807000	0.075748
2808200	0.063389
2809400	0.05433
2810700	0.047572
2816800	0.030847
2823000	0.024907
2829100	0.022213
2835300	0.020799
2841400	0.019987
2847600	0.019497
2853700	0.019196
2859900	0.019015
2866000	0.018916
2872200	0.018875
2878300	0.018879
2884500	0.018919
2890600	0.01899
2896800	0.019089
2902900	0.019213
2909100	0.019364
2915200	0.01954
2921400	0.019743
2927600	0.019977
2933700	0.020244
2939900	0.020551
2946000	0.020903
2952200	0.02131
2958300	0.021783
2964500	0.022338
2970600	0.022998
2976800	0.02379
2982900	0.024755
2989100	0.025944
2995200	0.027431
3001400	0.029306
3007500	0.031686
3013700	0.034696
3019800	0.038427
3026000	0.042844
3032100	0.047629
3038300	0.052084
3044400	0.055268
3046900	0.056018
3049300	0.056442
3050600	0.056534
3051800	0.056552
3053000	0.056496
3054300	0.056378
3055500	0.056196
3056700	0.055957
3058000	0.055672
3059200	0.055345
3060400	0.05498
3061600	0.054588
3062900	0.054176
3069000	0.05192
3075200	0.049715
3081300	0.047823
3093600	0.045221
3105900	0.044057
3118200	0.044005
3130500	0.044821
3142800	0.046372
3155100	0.048606
3167400	0.051518
3179700	0.055168
3192100	0.059639
3204400	0.065047
3216700	0.071523
3229000	0.079203
3241300	0.088171
3253600	0.09837
3265900	0.10943
3278200	0.12046
3290500	0.1298
3302800	0.13522
3315100	0.13463
3327400	0.12738
3339700	0.11506
3352000	0.10088
3364300	0.088665
3376600	0.083064
3379000	0.083392
3381500	0.08442
3384000	0.086278
3386400	0.089093
3388900	0.092958
3391300	0.097887
3393800	0.1037
3395000	0.10679
3396300	0.10988
3397500	0.11282
3398700	0.11547
3400000	0.11763
3401200	0.11914
3402400	0.11984
3403600	0.11962
3404900	0.11843
3406100	0.11631
3407300	0.11334
3408600	0.10966
3409800	0.10544
3411000	0.10086
3412300	0.096101
3413500	0.091286
3414700	0.086536
3416000	0.081936
3417200	0.077545
3418400	0.073392
3419600	0.069496
3420900	0.065866
3422100	0.062492
3423300	0.059366
3424600	0.056473
3425800	0.053794
3428300	0.04903
3430700	0.044937
3433200	0.041403
3435600	0.038333
3438100	0.035646
3444200	0.03021
3450400	0.026083
3456500	0.02284
3462700	0.020221
3475000	0.01625
3487300	0.013388
3499600	0.011244
3511900	0.0095982
3524200	0.008313
3536500	0.0072989
3548800	0.0064948
3561100	0.0058593
3573400	0.0053661
3585700	0.0050051
3598000	0.004797
3610300	0.0048947
3622600	0.0074249
3634900	0.0070599
3647200	0.0041378
3659500	0.0045487
3671800	0.0055739
3684100	0.0043814
3690300	0.0040897
3696400	0.0063634
3702600	0.027588
3703800	0.044967
3705100	0.073384
3706300	0.095758
3707500	0.081142
3708700	0.053701
3710000	0.035057
3711200	0.024285
3712400	0.017931
3713700	0.013971
3714900	0.011363
3721000	0.005996
3727200	0.0043913
3733400	0.0036901
3739500	0.0033158
3745700	0.00309
3758000	0.0028391
3770300	0.0027082
3782600	0.0026309
3794900	0.0025813
3807200	0.0025478
3819500	0.0025243
3831800	0.0025074
3844100	0.0024954
3856400	0.0024876
3868700	0.0024844
3881000	0.0024877
3893300	0.0025009
3905600	0.0025299
3917900	0.002584
3930200	0.0026766
3942500	0.0028262
3954800	0.0030557
3967100	0.0033894
3979400	0.003848
3991700	0.0044429
3997900	0.0047928
4004000	0.0051785
4010200	0.0056035
4016300	0.0060726
4022500	0.0065998
4028600	0.0072065
4034800	0.0079343
4040500	0.008778
4040900	0.0088541
4047100	0.010092
4053200	0.011884
4059400	0.014657
4065500	0.019091
4068000	0.021616
4071700	0.025403
4075400	0.028042
4077800	0.029802
4080300	0.027635
4085200	0.0233
4087700	0.021133
4090100	0.018964
4096300	0.01515
4102400	0.011334
4108600	0.010151
4114700	0.0089687
4127000	0.0081696
4139300	0.0079022
4151600	0.0078578
4163900	0.0079251
4176200	0.0080604
4188500	0.008246
4200800	0.0084759
4213100	0.0087501
4225400	0.009074
4237700	0.009457
4250000	0.009915
4262300	0.010472
4274700	0.011165
4287000	0.012054
4299300	0.01324
4311600	0.014907
4323900	0.017417
4330000	0.019488
4336200	0.02156
4342300	0.025443
4348500	0.029328
4354600	0.037971
4360800	0.046618
4366900	0.06367
4370600	0.079881
4373100	0.090691
4375500	0.1038
4379200	0.12347
4380500	0.1284
4381700	0.1319
4382900	0.13361
4384100	0.13333
4385400	0.131
4386600	0.12679
4387800	0.12101
4389100	0.1141
4390300	0.10651
4391500	0.098667
4392800	0.090825
4395200	0.076265
4397700	0.063847
4403800	0.042276
4410000	0.030233
4416100	0.023398
4422300	0.019364
4428400	0.016902
4434600	0.01537
4440700	0.014421
4446900	0.013855
4453000	0.013546
4459200	0.013387
4461600	0.013328
4464100	0.013232
4465300	0.013136
4466600	0.013041
4469000	0.012632
4471500	0.011793
4473900	0.010359
4476400	0.0088666
4477600	0.0084954
4478900	0.00847
4480100	0.0087112
4481300	0.0090986
4482600	0.0095358
4483800	0.0099663
4485000	0.010366
4486300	0.010727
4487500	0.01105
4488700	0.011339
4491200	0.011837
4493600	0.012257
4496100	0.012625
4498600	0.012962
4501000	0.01328
4502200	0.013433
4503500	0.013586
4505900	0.01389
4508400	0.014194
4514500	0.014987
4520700	0.015865
4526800	0.016878
4533000	0.018089
4539200	0.019587
4542800	0.020748
4545300	0.021522
4547800	0.022577
4550200	0.023633
4551500	0.024161
4552700	0.024941
4553900	0.02572
4555100	0.026501
4556400	0.027281
4557600	0.028061
4558800	0.029149
4560100	0.030237
4561300	0.031619
4562500	0.033
4563800	0.034838
4565000	0.036676
4566200	0.039289
4567400	0.041902
4569900	0.05011
4571100	0.056316
4572400	0.065016
4573600	0.077763
4574800	0.096947
4576100	0.12453
4577300	0.15516
4578500	0.16825
4579700	0.15432
4581000	0.13282
4582200	0.11753
4584700	0.10713
4587100	0.11165
4588400	0.11681
4589600	0.12196
4592100	0.13074
4594500	0.13025
4597000	0.11719
4599400	0.096489
4601900	0.075701
4604400	0.058855
4606800	0.046494
4609300	0.038649
4611700	0.033144
4614200	0.029302
4616700	0.026633
4619100	0.024797
4625300	0.022495
4631400	0.022064
4637600	0.022636
4656000	0.024419
4680600	0.026315
4729800	0.035342
4779000	0.034695
4803700	0.033172
4818700	0.032214
4828300	0.031835
4852900	0.03304
4877500	0.035778
4902100	0.043744
4926700	0.066483
4951300	0.096047
4975900	0.12241
5000500	0.10955
5013370	0.09693476
5020000	0.0931002
5030000	0.0857657
5040000	0.0827002
5050000	0.082422
5060000	0.084054
5070000	0.087088
5080000	0.091213
5090000	0.096223
5100000	0.10196
5110000	0.10828
5119310	0.1145736
5120000	0.11504
5130000	0.12206
5140000	0.12913
5150000	0.13604
5160000	0.14253
5170000	0.148354
5180000	0.153244
5190000	0.157016
5200000	0.15957
5210000	0.1607953
5220000	0.1607502
5230000	0.1595743
5240000	0.157376
5250000	0.154411
5260000	0.15089
5270000	0.147049
5280000	0.14312
5290000	0.13941
5300000	0.13658
5310000	0.13775
5320000	0.1747
5330000	0.18337
5340000	0.145349
5350000	0.136149
5360000	0.13307
5370000	0.13252
5380000	0.13366
5390000	0.1362506
5400000	0.1401198
5410000	0.1451202
5420000	0.15094
5430000	0.1569799
5440000	0.1624
5450000	0.1662399
5460000	0.16769
5470000	0.1664594
5480000	0.1628402
5490000	0.1576401
5500000	0.1516999
5510000	0.1457796
5520000	0.1403602
5530000	0.1356796
5540000	0.1318695
5550000	0.1288898
5560000	0.1266996
5570000	0.1252098
5580000	0.1243807
5590000	0.1241096
5600000	0.1241746
5610000	0.1243644
5620000	0.1246846
5630000	0.1251372
5640000	0.1257057
5650000	0.1264086
5660000	0.1272377
5670000	0.1281963
5680000	0.1292801
5690000	0.1304942
5700000	0.1318338
5710000	0.133303
5720000	0.1348985
5730000	0.1366213
5740000	0.1384724
5750000	0.1404521
5760000	0.1425583
5770000	0.1447933
5780000	0.1471542
5790000	0.1496453
5800000	0.1522621
5810000	0.1550068
5820000	0.1578802
5830000	0.16088
5840000	0.169931
5850000	0.177955
5860000	0.188526
5870000	0.20251
5880000	0.220699
5890000	0.243949
5900000	0.274102
5910000	0.315512
5920000	0.359021
5930000	0.400731
5940000	0.436746
5950000	0.463145
5960000	0.476019
5970000	0.470707
5980000	0.451662
5990000	0.422777
6000000	0.38784
6010000	0.350675
6020000	0.315071
6030000	0.284211
6040000	0.258865
6050000	0.238581
6060000	0.222831
6070000	0.2111
6080000	0.202884
6090000	0.197642
6100000	0.194874
6110000	0.194062
6120000	0.194689
6130000	0.196238
6140000	0.198203
6148560	0.1997866
6150000	0.200053
6160000	0.201568
6170000	0.202764
6180000	0.203643
6190000	0.204235
6200000	0.204542
6400000	0.1757487
6410120	0.1751133
6600000	0.1631905
6800000	0.2049002
7000000	0.255302
7200000	0.278481
7400000	0.28028
7600000	0.27608
7800000	0.2731927
8000000	0.2709428
8200000	0.2682514
8400000	0.2655935
8600000	0.2636757
8705330	0.263141
8800000	0.2626604
9000000	0.2620096
9200000	0.2614587
9400000	0.2613757
9600000	0.2617226
9800000	0.2625743
10000000	0.2614518
10200000	0.2631467
10400000	0.2628733
10600000	0.2620936
10800000	0.2626481
11000000	0.2604887
11200000	0.2611922
11400000	0.2601577
11600000	0.2589689
11800000	0.2580624
12000000	0.2559308
12200000	0.2550674
12400000	0.2533189
12600000	0.2519287
12800000	0.2510865
13000000	0.2496576
13200000	0.2493659
13400000	0.2487324
13600000	0.2486192
13800000	0.2487238
14000000	0.2475732
14200000	0.247418
14400000	0.2468232
14600000	0.2462403
14800000	0.2459639
15000000	0.2462428

